torque,current
0.000,0.04
0.001,0.07
0.002,0.10
0.003,0.13
0.004,0.15
0.005,0.18
0.006,0.21
0.007,0.24
0.008,0.27
0.009,0.30
0.010,0.33
0.011,0.36
0.012,0.38
0.013,0.41
0.014,0.44
0.015,0.47
0.016,0.50
0.017,0.53
0.018,0.56
0.019,0.58
0.020,0.61
0.021,0.64
0.022,0.67
0.023,0.70
0.024,0.73
0.025,0.76
0.026,0.79
0.027,0.81
0.028,0.84
0.029,0.87
0.030,0.90

